# CROSSOH: OH molecular cross-section x partition function table
# log10(sigma*Q) for 15 temperatures x 130 energy bins
# IT = 1-15: T = 2000, 2500, ..., 9000 K
# N  = 1-130: E = 2.1, 2.2, ..., 15.0 eV
# Dimensions: 15 130
-30.855E0  -29.121E0  -27.976E0  -27.166E0  -26.566E0  -26.106E0  -25.742E0  -25.448E0  -25.207E0  -25.006E0  -24.836E0  -24.691E0  -24.566E0  -24.457E0  -24.363E0
-30.494E0  -28.760E0  -27.615E0  -26.806E0  -26.206E0  -25.745E0  -25.381E0  -25.088E0  -24.846E0  -24.645E0  -24.475E0  -24.330E0  -24.205E0  -24.097E0  -24.002E0
-30.157E0  -28.425E0  -27.280E0  -26.472E0  -25.872E0  -25.411E0  -25.048E0  -24.754E0  -24.513E0  -24.312E0  -24.142E0  -23.997E0  -23.872E0  -23.764E0  -23.669E0
-29.848E0  -28.117E0  -26.974E0  -26.165E0  -25.566E0  -25.105E0  -24.742E0  -24.448E0  -24.207E0  -24.006E0  -23.836E0  -23.692E0  -23.567E0  -23.458E0  -23.364E0
-29.567E0  -27.837E0  -26.693E0  -25.885E0  -25.286E0  -24.826E0  -24.462E0  -24.169E0  -23.928E0  -23.727E0  -23.557E0  -23.412E0  -23.287E0  -23.179E0  -23.084E0
-29.307E0  -27.578E0  -26.436E0  -25.628E0  -25.029E0  -24.569E0  -24.205E0  -23.912E0  -23.671E0  -23.470E0  -23.300E0  -23.155E0  -23.031E0  -22.922E0  -22.828E0
-29.068E0  -27.341E0  -26.199E0  -25.391E0  -24.792E0  -24.332E0  -23.969E0  -23.676E0  -23.435E0  -23.234E0  -23.064E0  -22.920E0  -22.795E0  -22.687E0  -22.592E0
-28.820E0  -27.115E0  -25.978E0  -25.172E0  -24.574E0  -24.115E0  -23.752E0  -23.459E0  -23.218E0  -23.017E0  -22.848E0  -22.703E0  -22.579E0  -22.470E0  -22.376E0
-28.540E0  -26.891E0  -25.768E0  -24.968E0  -24.372E0  -23.914E0  -23.552E0  -23.259E0  -23.019E0  -22.818E0  -22.649E0  -22.504E0  -22.380E0  -22.272E0  -22.177E0
-28.275E0  -26.681E0  -25.574E0  -24.779E0  -24.186E0  -23.729E0  -23.368E0  -23.076E0  -22.836E0  -22.636E0  -22.467E0  -22.322E0  -22.198E0  -22.090E0  -21.996E0
-27.993E0  -26.470E0  -25.388E0  -24.602E0  -24.014E0  -23.560E0  -23.200E0  -22.909E0  -22.669E0  -22.470E0  -22.301E0  -22.157E0  -22.033E0  -21.925E0  -21.831E0
-27.698E0  -26.252E0  -25.204E0  -24.433E0  -23.851E0  -23.401E0  -23.043E0  -22.754E0  -22.515E0  -22.316E0  -22.148E0  -22.005E0  -21.881E0  -21.773E0  -21.679E0
-27.398E0  -26.026E0  -25.019E0  -24.267E0  -23.696E0  -23.251E0  -22.896E0  -22.609E0  -22.372E0  -22.174E0  -22.007E0  -21.864E0  -21.741E0  -21.634E0  -21.540E0
-27.100E0  -25.791E0  -24.828E0  -24.102E0  -23.543E0  -23.106E0  -22.756E0  -22.472E0  -22.238E0  -22.041E0  -21.875E0  -21.733E0  -21.611E0  -21.504E0  -21.411E0
-26.807E0  -25.549E0  -24.631E0  -23.933E0  -23.391E0  -22.964E0  -22.621E0  -22.341E0  -22.109E0  -21.915E0  -21.751E0  -21.610E0  -21.488E0  -21.383E0  -21.290E0
-26.531E0  -25.310E0  -24.431E0  -23.761E0  -23.238E0  -22.823E0  -22.488E0  -22.214E0  -21.986E0  -21.795E0  -21.633E0  -21.494E0  -21.374E0  -21.269E0  -21.178E0
-26.239E0  -25.066E0  -24.225E0  -23.585E0  -23.082E0  -22.681E0  -22.356E0  -22.089E0  -21.866E0  -21.679E0  -21.520E0  -21.383E0  -21.265E0  -21.162E0  -21.072E0
-25.945E0  -24.824E0  -24.017E0  -23.405E0  -22.923E0  -22.538E0  -22.223E0  -21.964E0  -21.748E0  -21.565E0  -21.410E0  -21.276E0  -21.160E0  -21.059E0  -20.970E0
-25.663E0  -24.587E0  -23.810E0  -23.222E0  -22.761E0  -22.391E0  -22.088E0  -21.838E0  -21.629E0  -21.452E0  -21.300E0  -21.170E0  -21.057E0  -20.958E0  -20.872E0
-25.372E0  -24.350E0  -23.603E0  -23.038E0  -22.596E0  -22.241E0  -21.950E0  -21.710E0  -21.508E0  -21.337E0  -21.190E0  -21.064E0  -20.954E0  -20.858E0  -20.774E0
-25.076E0  -24.111E0  -23.396E0  -22.853E0  -22.429E0  -22.088E0  -21.809E0  -21.578E0  -21.384E0  -21.220E0  -21.078E0  -20.957E0  -20.851E0  -20.758E0  -20.676E0
-24.779E0  -23.870E0  -23.189E0  -22.669E0  -22.261E0  -21.934E0  -21.667E0  -21.445E0  -21.259E0  -21.101E0  -20.965E0  -20.848E0  -20.746E0  -20.656E0  -20.578E0
-24.486E0  -23.629E0  -22.983E0  -22.486E0  -22.095E0  -21.781E0  -21.524E0  -21.311E0  -21.132E0  -20.980E0  -20.850E0  -20.737E0  -20.639E0  -20.553E0  -20.478E0
-24.183E0  -23.382E0  -22.774E0  -22.302E0  -21.928E0  -21.627E0  -21.381E0  -21.177E0  -21.005E0  -20.859E0  -20.734E0  -20.625E0  -20.531E0  -20.449E0  -20.376E0
-23.867E0  -23.127E0  -22.561E0  -22.116E0  -21.761E0  -21.474E0  -21.238E0  -21.043E0  -20.878E0  -20.738E0  -20.617E0  -20.513E0  -20.423E0  -20.344E0  -20.274E0
-23.538E0  -22.862E0  -22.340E0  -21.926E0  -21.592E0  -21.320E0  -21.096E0  -20.909E0  -20.751E0  -20.617E0  -20.502E0  -20.402E0  -20.315E0  -20.239E0  -20.172E0
-23.234E0  -22.604E0  -22.120E0  -21.734E0  -21.422E0  -21.166E0  -20.953E0  -20.776E0  -20.625E0  -20.497E0  -20.387E0  -20.291E0  -20.208E0  -20.135E0  -20.071E0
-22.934E0  -22.347E0  -21.898E0  -21.541E0  -21.250E0  -21.010E0  -20.811E0  -20.643E0  -20.500E0  -20.378E0  -20.273E0  -20.182E0  -20.102E0  -20.033E0  -19.971E0
-22.637E0  -22.092E0  -21.676E0  -21.345E0  -21.075E0  -20.853E0  -20.666E0  -20.508E0  -20.374E0  -20.259E0  -20.159E0  -20.073E0  -19.997E0  -19.931E0  -19.872E0
-22.337E0  -21.835E0  -21.452E0  -21.147E0  -20.899E0  -20.693E0  -20.520E0  -20.373E0  -20.247E0  -20.139E0  -20.046E0  -19.964E0  -19.892E0  -19.830E0  -19.774E0
-22.049E0  -21.584E0  -21.230E0  -20.950E0  -20.721E0  -20.531E0  -20.372E0  -20.236E0  -20.119E0  -20.019E0  -19.931E0  -19.855E0  -19.788E0  -19.729E0  -19.676E0
-21.768E0  -21.337E0  -21.011E0  -20.754E0  -20.544E0  -20.370E0  -20.223E0  -20.098E0  -19.991E0  -19.898E0  -19.817E0  -19.746E0  -19.683E0  -19.628E0  -19.579E0
-21.494E0  -21.096E0  -20.796E0  -20.559E0  -20.367E0  -20.208E0  -20.074E0  -19.960E0  -19.861E0  -19.776E0  -19.701E0  -19.636E0  -19.578E0  -19.527E0  -19.482E0
-21.233E0  -20.861E0  -20.585E0  -20.368E0  -20.193E0  -20.048E0  -19.926E0  -19.821E0  -19.732E0  -19.654E0  -19.586E0  -19.526E0  -19.473E0  -19.426E0  -19.384E0
-20.983E0  -20.635E0  -20.380E0  -20.181E0  -20.021E0  -19.889E0  -19.778E0  -19.683E0  -19.602E0  -19.531E0  -19.469E0  -19.415E0  -19.367E0  -19.324E0  -19.286E0
-20.743E0  -20.418E0  -20.182E0  -19.999E0  -19.853E0  -19.733E0  -19.633E0  -19.547E0  -19.474E0  -19.410E0  -19.354E0  -19.305E0  -19.261E0  -19.223E0  -19.189E0
-20.515E0  -20.210E0  -19.991E0  -19.824E0  -19.690E0  -19.581E0  -19.490E0  -19.413E0  -19.347E0  -19.290E0  -19.240E0  -19.196E0  -19.157E0  -19.122E0  -19.092E0
-20.297E0  -20.011E0  -19.808E0  -19.654E0  -19.532E0  -19.434E0  -19.352E0  -19.282E0  -19.223E0  -19.172E0  -19.127E0  -19.088E0  -19.054E0  -19.023E0  -18.996E0
-20.090E0  -19.822E0  -19.633E0  -19.491E0  -19.381E0  -19.291E0  -19.218E0  -19.156E0  -19.103E0  -19.057E0  -19.018E0  -18.983E0  -18.952E0  -18.925E0  -18.901E0
-19.893E0  -19.642E0  -19.467E0  -19.337E0  -19.236E0  -19.155E0  -19.089E0  -19.034E0  -18.987E0  -18.946E0  -18.912E0  -18.881E0  -18.854E0  -18.831E0  -18.810E0
-19.705E0  -19.472E0  -19.309E0  -19.190E0  -19.098E0  -19.025E0  -18.966E0  -18.917E0  -18.876E0  -18.840E0  -18.810E0  -18.783E0  -18.760E0  -18.739E0  -18.721E0
-19.527E0  -19.310E0  -19.161E0  -19.051E0  -18.968E0  -18.903E0  -18.851E0  -18.807E0  -18.771E0  -18.740E0  -18.713E0  -18.690E0  -18.670E0  -18.653E0  -18.637E0
-19.357E0  -19.159E0  -19.022E0  -18.922E0  -18.847E0  -18.789E0  -18.743E0  -18.704E0  -18.673E0  -18.646E0  -18.623E0  -18.603E0  -18.586E0  -18.571E0  -18.558E0
-19.195E0  -19.016E0  -18.892E0  -18.803E0  -18.736E0  -18.684E0  -18.643E0  -18.610E0  -18.583E0  -18.560E0  -18.540E0  -18.523E0  -18.509E0  -18.496E0  -18.485E0
-19.042E0  -18.883E0  -18.772E0  -18.693E0  -18.634E0  -18.589E0  -18.553E0  -18.525E0  -18.501E0  -18.481E0  -18.465E0  -18.451E0  -18.438E0  -18.428E0  -18.419E0
-18.894E0  -18.758E0  -18.662E0  -18.593E0  -18.542E0  -18.503E0  -18.473E0  -18.448E0  -18.428E0  -18.412E0  -18.398E0  -18.386E0  -18.376E0  -18.367E0  -18.359E0
-18.752E0  -18.639E0  -18.559E0  -18.501E0  -18.458E0  -18.426E0  -18.400E0  -18.380E0  -18.363E0  -18.350E0  -18.338E0  -18.328E0  -18.320E0  -18.313E0  -18.306E0
-18.611E0  -18.523E0  -18.460E0  -18.415E0  -18.381E0  -18.355E0  -18.334E0  -18.318E0  -18.304E0  -18.293E0  -18.284E0  -18.276E0  -18.269E0  -18.263E0  -18.258E0
-18.471E0  -18.408E0  -18.362E0  -18.329E0  -18.304E0  -18.285E0  -18.269E0  -18.257E0  -18.247E0  -18.238E0  -18.231E0  -18.224E0  -18.219E0  -18.214E0  -18.210E0
-18.330E0  -18.290E0  -18.261E0  -18.239E0  -18.223E0  -18.211E0  -18.201E0  -18.192E0  -18.185E0  -18.179E0  -18.174E0  -18.169E0  -18.165E0  -18.162E0  -18.159E0
-18.190E0  -18.168E0  -18.154E0  -18.143E0  -18.135E0  -18.129E0  -18.124E0  -18.120E0  -18.116E0  -18.112E0  -18.109E0  -18.106E0  -18.104E0  -18.102E0  -18.100E0
-18.055E0  -18.047E0  -18.043E0  -18.042E0  -18.040E0  -18.039E0  -18.039E0  -18.038E0  -18.037E0  -18.036E0  -18.035E0  -18.034E0  -18.033E0  -18.033E0  -18.032E0
-17.929E0  -17.931E0  -17.935E0  -17.939E0  -17.943E0  -17.946E0  -17.948E0  -17.950E0  -17.952E0  -17.953E0  -17.955E0  -17.956E0  -17.957E0  -17.958E0  -17.959E0
-17.818E0  -17.826E0  -17.834E0  -17.842E0  -17.849E0  -17.855E0  -17.860E0  -17.865E0  -17.869E0  -17.872E0  -17.875E0  -17.878E0  -17.881E0  -17.883E0  -17.886E0
-17.724E0  -17.736E0  -17.747E0  -17.758E0  -17.767E0  -17.775E0  -17.782E0  -17.788E0  -17.793E0  -17.798E0  -17.803E0  -17.807E0  -17.811E0  -17.815E0  -17.819E0
-17.651E0  -17.665E0  -17.678E0  -17.690E0  -17.701E0  -17.710E0  -17.718E0  -17.725E0  -17.732E0  -17.738E0  -17.744E0  -17.749E0  -17.755E0  -17.760E0  -17.765E0
-17.601E0  -17.615E0  -17.629E0  -17.642E0  -17.653E0  -17.663E0  -17.672E0  -17.680E0  -17.688E0  -17.695E0  -17.701E0  -17.708E0  -17.714E0  -17.720E0  -17.726E0
-17.572E0  -17.587E0  -17.602E0  -17.614E0  -17.626E0  -17.636E0  -17.645E0  -17.654E0  -17.662E0  -17.670E0  -17.677E0  -17.684E0  -17.691E0  -17.698E0  -17.704E0
-17.565E0  -17.581E0  -17.595E0  -17.607E0  -17.619E0  -17.629E0  -17.638E0  -17.647E0  -17.656E0  -17.664E0  -17.671E0  -17.679E0  -17.686E0  -17.693E0  -17.700E0
-17.580E0  -17.594E0  -17.608E0  -17.620E0  -17.630E0  -17.640E0  -17.650E0  -17.658E0  -17.667E0  -17.675E0  -17.682E0  -17.690E0  -17.697E0  -17.704E0  -17.711E0
-17.613E0  -17.626E0  -17.639E0  -17.649E0  -17.659E0  -17.669E0  -17.677E0  -17.686E0  -17.694E0  -17.701E0  -17.709E0  -17.716E0  -17.723E0  -17.730E0  -17.737E0
-17.663E0  -17.675E0  -17.685E0  -17.695E0  -17.703E0  -17.711E0  -17.719E0  -17.727E0  -17.734E0  -17.741E0  -17.748E0  -17.755E0  -17.761E0  -17.768E0  -17.774E0
-17.728E0  -17.737E0  -17.745E0  -17.752E0  -17.759E0  -17.766E0  -17.772E0  -17.778E0  -17.785E0  -17.791E0  -17.797E0  -17.803E0  -17.808E0  -17.814E0  -17.820E0
-17.803E0  -17.809E0  -17.814E0  -17.818E0  -17.823E0  -17.828E0  -17.832E0  -17.837E0  -17.842E0  -17.847E0  -17.852E0  -17.856E0  -17.861E0  -17.866E0  -17.871E0
-17.884E0  -17.886E0  -17.888E0  -17.889E0  -17.891E0  -17.893E0  -17.896E0  -17.899E0  -17.902E0  -17.905E0  -17.908E0  -17.912E0  -17.915E0  -17.919E0  -17.922E0
-17.966E0  -17.964E0  -17.961E0  -17.959E0  -17.958E0  -17.958E0  -17.958E0  -17.959E0  -17.960E0  -17.961E0  -17.963E0  -17.964E0  -17.966E0  -17.968E0  -17.970E0
-18.040E0  -18.034E0  -18.028E0  -18.023E0  -18.019E0  -18.016E0  -18.013E0  -18.012E0  -18.010E0  -18.010E0  -18.009E0  -18.009E0  -18.009E0  -18.009E0  -18.010E0
-18.096E0  -18.087E0  -18.078E0  -18.071E0  -18.065E0  -18.059E0  -18.055E0  -18.051E0  -18.047E0  -18.045E0  -18.042E0  -18.040E0  -18.039E0  -18.037E0  -18.036E0
-18.125E0  -18.115E0  -18.105E0  -18.097E0  -18.089E0  -18.082E0  -18.076E0  -18.070E0  -18.065E0  -18.061E0  -18.057E0  -18.053E0  -18.051E0  -18.048E0  -18.046E0
-18.120E0  -18.112E0  -18.103E0  -18.095E0  -18.087E0  -18.079E0  -18.072E0  -18.066E0  -18.060E0  -18.055E0  -18.050E0  -18.046E0  -18.042E0  -18.039E0  -18.036E0
-18.083E0  -18.078E0  -18.071E0  -18.064E0  -18.057E0  -18.050E0  -18.044E0  -18.037E0  -18.032E0  -18.026E0  -18.022E0  -18.017E0  -18.014E0  -18.010E0  -18.007E0
-18.025E0  -18.022E0  -18.017E0  -18.012E0  -18.006E0  -18.000E0  -17.994E0  -17.989E0  -17.984E0  -17.979E0  -17.975E0  -17.971E0  -17.968E0  -17.965E0  -17.963E0
-17.957E0  -17.955E0  -17.952E0  -17.948E0  -17.943E0  -17.938E0  -17.934E0  -17.929E0  -17.925E0  -17.922E0  -17.918E0  -17.916E0  -17.913E0  -17.911E0  -17.910E0
-17.890E0  -17.889E0  -17.886E0  -17.882E0  -17.879E0  -17.875E0  -17.871E0  -17.867E0  -17.864E0  -17.862E0  -17.860E0  -17.858E0  -17.857E0  -17.856E0  -17.855E0
-17.831E0  -17.829E0  -17.826E0  -17.822E0  -17.819E0  -17.815E0  -17.812E0  -17.810E0  -17.807E0  -17.806E0  -17.804E0  -17.803E0  -17.803E0  -17.803E0  -17.803E0
-17.786E0  -17.782E0  -17.777E0  -17.773E0  -17.769E0  -17.766E0  -17.763E0  -17.761E0  -17.759E0  -17.758E0  -17.757E0  -17.757E0  -17.757E0  -17.758E0  -17.759E0
-17.753E0  -17.747E0  -17.741E0  -17.735E0  -17.731E0  -17.727E0  -17.724E0  -17.722E0  -17.721E0  -17.720E0  -17.720E0  -17.720E0  -17.721E0  -17.722E0  -17.724E0
-17.733E0  -17.724E0  -17.716E0  -17.709E0  -17.703E0  -17.699E0  -17.696E0  -17.694E0  -17.693E0  -17.692E0  -17.692E0  -17.693E0  -17.694E0  -17.695E0  -17.697E0
-17.723E0  -17.711E0  -17.700E0  -17.691E0  -17.685E0  -17.680E0  -17.676E0  -17.674E0  -17.673E0  -17.672E0  -17.673E0  -17.673E0  -17.675E0  -17.676E0  -17.678E0
-17.718E0  -17.702E0  -17.689E0  -17.679E0  -17.672E0  -17.667E0  -17.663E0  -17.660E0  -17.659E0  -17.659E0  -17.659E0  -17.660E0  -17.661E0  -17.663E0  -17.665E0
-17.713E0  -17.695E0  -17.681E0  -17.670E0  -17.662E0  -17.656E0  -17.653E0  -17.650E0  -17.649E0  -17.649E0  -17.649E0  -17.650E0  -17.651E0  -17.653E0  -17.655E0
-17.705E0  -17.686E0  -17.671E0  -17.660E0  -17.652E0  -17.647E0  -17.643E0  -17.641E0  -17.640E0  -17.640E0  -17.640E0  -17.641E0  -17.643E0  -17.645E0  -17.647E0
-17.690E0  -17.671E0  -17.657E0  -17.647E0  -17.640E0  -17.635E0  -17.632E0  -17.630E0  -17.630E0  -17.630E0  -17.631E0  -17.632E0  -17.634E0  -17.636E0  -17.639E0
-17.667E0  -17.649E0  -17.637E0  -17.629E0  -17.623E0  -17.619E0  -17.618E0  -17.617E0  -17.617E0  -17.618E0  -17.619E0  -17.621E0  -17.623E0  -17.626E0  -17.628E0
-17.635E0  -17.621E0  -17.611E0  -17.605E0  -17.601E0  -17.600E0  -17.599E0  -17.599E0  -17.601E0  -17.602E0  -17.604E0  -17.607E0  -17.609E0  -17.612E0  -17.615E0
-17.596E0  -17.585E0  -17.579E0  -17.576E0  -17.575E0  -17.575E0  -17.576E0  -17.578E0  -17.580E0  -17.582E0  -17.585E0  -17.588E0  -17.591E0  -17.595E0  -17.598E0
-17.550E0  -17.544E0  -17.542E0  -17.542E0  -17.544E0  -17.546E0  -17.548E0  -17.552E0  -17.555E0  -17.558E0  -17.562E0  -17.566E0  -17.570E0  -17.573E0  -17.577E0
-17.501E0  -17.500E0  -17.501E0  -17.504E0  -17.508E0  -17.513E0  -17.517E0  -17.521E0  -17.526E0  -17.530E0  -17.535E0  -17.539E0  -17.544E0  -17.548E0  -17.553E0
-17.449E0  -17.452E0  -17.457E0  -17.463E0  -17.470E0  -17.476E0  -17.482E0  -17.488E0  -17.493E0  -17.499E0  -17.504E0  -17.509E0  -17.514E0  -17.519E0  -17.524E0
-17.396E0  -17.403E0  -17.412E0  -17.420E0  -17.429E0  -17.437E0  -17.444E0  -17.451E0  -17.458E0  -17.464E0  -17.470E0  -17.476E0  -17.481E0  -17.487E0  -17.492E0
-17.344E0  -17.355E0  -17.366E0  -17.377E0  -17.387E0  -17.396E0  -17.405E0  -17.413E0  -17.420E0  -17.427E0  -17.434E0  -17.440E0  -17.446E0  -17.452E0  -17.458E0
-17.295E0  -17.307E0  -17.321E0  -17.333E0  -17.345E0  -17.355E0  -17.365E0  -17.373E0  -17.382E0  -17.389E0  -17.397E0  -17.404E0  -17.410E0  -17.417E0  -17.423E0
-17.249E0  -17.264E0  -17.278E0  -17.292E0  -17.304E0  -17.316E0  -17.326E0  -17.335E0  -17.344E0  -17.352E0  -17.360E0  -17.368E0  -17.375E0  -17.382E0  -17.389E0
-17.209E0  -17.225E0  -17.241E0  -17.255E0  -17.268E0  -17.280E0  -17.291E0  -17.301E0  -17.310E0  -17.319E0  -17.327E0  -17.335E0  -17.343E0  -17.350E0  -17.357E0
-17.177E0  -17.194E0  -17.210E0  -17.225E0  -17.239E0  -17.251E0  -17.262E0  -17.272E0  -17.282E0  -17.291E0  -17.300E0  -17.308E0  -17.316E0  -17.324E0  -17.331E0
-17.154E0  -17.172E0  -17.189E0  -17.204E0  -17.218E0  -17.230E0  -17.242E0  -17.252E0  -17.262E0  -17.272E0  -17.280E0  -17.289E0  -17.298E0  -17.306E0  -17.314E0
-17.144E0  -17.162E0  -17.179E0  -17.194E0  -17.208E0  -17.220E0  -17.232E0  -17.242E0  -17.253E0  -17.262E0  -17.271E0  -17.280E0  -17.289E0  -17.297E0  -17.306E0
-17.146E0  -17.164E0  -17.181E0  -17.196E0  -17.210E0  -17.222E0  -17.234E0  -17.245E0  -17.255E0  -17.265E0  -17.274E0  -17.283E0  -17.292E0  -17.301E0  -17.309E0
-17.163E0  -17.180E0  -17.197E0  -17.212E0  -17.225E0  -17.237E0  -17.249E0  -17.260E0  -17.270E0  -17.280E0  -17.289E0  -17.298E0  -17.307E0  -17.316E0  -17.325E0
-17.193E0  -17.211E0  -17.227E0  -17.241E0  -17.254E0  -17.266E0  -17.277E0  -17.288E0  -17.298E0  -17.308E0  -17.317E0  -17.327E0  -17.336E0  -17.345E0  -17.353E0
-17.239E0  -17.256E0  -17.271E0  -17.284E0  -17.297E0  -17.309E0  -17.320E0  -17.330E0  -17.340E0  -17.350E0  -17.359E0  -17.369E0  -17.378E0  -17.387E0  -17.395E0
-17.299E0  -17.315E0  -17.329E0  -17.342E0  -17.354E0  -17.365E0  -17.376E0  -17.386E0  -17.396E0  -17.405E0  -17.415E0  -17.424E0  -17.433E0  -17.442E0  -17.451E0
-17.373E0  -17.388E0  -17.402E0  -17.414E0  -17.425E0  -17.436E0  -17.446E0  -17.456E0  -17.466E0  -17.475E0  -17.484E0  -17.493E0  -17.502E0  -17.511E0  -17.520E0
-17.462E0  -17.476E0  -17.489E0  -17.500E0  -17.511E0  -17.521E0  -17.531E0  -17.541E0  -17.550E0  -17.559E0  -17.569E0  -17.578E0  -17.587E0  -17.595E0  -17.604E0
-17.567E0  -17.581E0  -17.592E0  -17.603E0  -17.613E0  -17.623E0  -17.632E0  -17.641E0  -17.651E0  -17.660E0  -17.669E0  -17.678E0  -17.686E0  -17.695E0  -17.704E0
-17.689E0  -17.701E0  -17.712E0  -17.722E0  -17.732E0  -17.741E0  -17.750E0  -17.759E0  -17.768E0  -17.777E0  -17.786E0  -17.795E0  -17.803E0  -17.812E0  -17.821E0
-17.829E0  -17.840E0  -17.851E0  -17.860E0  -17.869E0  -17.878E0  -17.887E0  -17.896E0  -17.904E0  -17.913E0  -17.922E0  -17.930E0  -17.939E0  -17.948E0  -17.956E0
-17.988E0  -18.000E0  -18.010E0  -18.019E0  -18.028E0  -18.036E0  -18.045E0  -18.053E0  -18.062E0  -18.070E0  -18.079E0  -18.087E0  -18.096E0  -18.104E0  -18.112E0
-18.171E0  -18.183E0  -18.192E0  -18.201E0  -18.210E0  -18.218E0  -18.227E0  -18.235E0  -18.243E0  -18.252E0  -18.260E0  -18.268E0  -18.277E0  -18.285E0  -18.293E0
-18.381E0  -18.393E0  -18.403E0  -18.413E0  -18.422E0  -18.430E0  -18.438E0  -18.447E0  -18.455E0  -18.463E0  -18.471E0  -18.479E0  -18.487E0  -18.495E0  -18.503E0
-18.625E0  -18.638E0  -18.650E0  -18.660E0  -18.669E0  -18.678E0  -18.687E0  -18.695E0  -18.703E0  -18.711E0  -18.719E0  -18.726E0  -18.734E0  -18.742E0  -18.750E0
-18.912E0  -18.929E0  -18.943E0  -18.955E0  -18.966E0  -18.975E0  -18.984E0  -18.993E0  -19.001E0  -19.008E0  -19.016E0  -19.023E0  -19.031E0  -19.038E0  -19.045E0
-19.260E0  -19.283E0  -19.303E0  -19.320E0  -19.333E0  -19.345E0  -19.355E0  -19.364E0  -19.372E0  -19.380E0  -19.387E0  -19.394E0  -19.400E0  -19.407E0  -19.413E0
-19.704E0  -19.740E0  -19.771E0  -19.796E0  -19.816E0  -19.832E0  -19.845E0  -19.855E0  -19.863E0  -19.870E0  -19.876E0  -19.882E0  -19.887E0  -19.892E0  -19.897E0
-20.339E0  -20.386E0  -20.424E0  -20.454E0  -20.476E0  -20.492E0  -20.502E0  -20.509E0  -20.513E0  -20.516E0  -20.518E0  -20.520E0  -20.521E0  -20.523E0  -20.524E0
-21.052E0  -21.075E0  -21.093E0  -21.105E0  -21.114E0  -21.120E0  -21.123E0  -21.125E0  -21.126E0  -21.127E0  -21.128E0  -21.130E0  -21.131E0  -21.133E0  -21.135E0
-21.174E0  -21.203E0  -21.230E0  -21.255E0  -21.278E0  -21.299E0  -21.320E0  -21.339E0  -21.357E0  -21.375E0  -21.392E0  -21.408E0  -21.424E0  -21.439E0  -21.454E0
-21.285E0  -21.317E0  -21.346E0  -21.372E0  -21.395E0  -21.416E0  -21.435E0  -21.452E0  -21.468E0  -21.483E0  -21.497E0  -21.511E0  -21.524E0  -21.536E0  -21.548E0
-21.396E0  -21.429E0  -21.459E0  -21.486E0  -21.511E0  -21.532E0  -21.551E0  -21.569E0  -21.585E0  -21.600E0  -21.614E0  -21.627E0  -21.640E0  -21.652E0  -21.663E0
-21.516E0  -21.549E0  -21.580E0  -21.609E0  -21.635E0  -21.658E0  -21.678E0  -21.696E0  -21.713E0  -21.728E0  -21.742E0  -21.755E0  -21.767E0  -21.779E0  -21.790E0
